EC-Lab ASCII FILE
Nb header lines : 34                          

Potentio Electrochemical Impedance Spectroscopy

Mode                Single sine         
E (V)               0,7000              
vs.                 Ref                 
tE (h:m:s)          0:00:30,0000        
record              1                   
dI                  0,000               
unit dI             mA                  
dt (s)              1,000               
fi                  200,000             
unit fi             kHz                 
ff                  500,000             
unit ff             mHz                 
Nd                  15                  
Points              per decade          
spacing             Logarithmic         
Va (mV)             5,0                 
pw                  0,10                
Na                  5                   
corr                0                   
E range min (V)     -2,500              
E range max (V)     2,500               
I Range             10 A                
Bandwidth           3                   
nc cycles           0                   
goto Ns'            0                   
nr cycles           0                   
inc. cycle          0 

freq/Hz	Re(Z)/Ohm	-Im(Z)/Ohm	|Z|/Ohm	Phase(Z)/deg	time/s	<Ewe>/V	<I>/mA	Cs/µF	Cp/µF	cycle number	I Range	|Ewe|/V	|I|/A	Re(Y)/Ohm-1	Im(Y)/Ohm-1	|Y|/Ohm-1	Phase(Y)/deg
0,0000000E+000	0,0000000E+000	0,0000000E+000	0,0000000E+000	0,0000000E+000	1,266600060189376E+000	6,9964743E-001	-1,9059791E+003	0,0000000E+000	0,0000000E+000	1,000000000000000E+000	7	0,0000000E+000	0,0000000E+000	0,0000000E+000	0,0000000E+000	0,0000000E+000	0,0000000E+000
0,0000000E+000	0,0000000E+000	0,0000000E+000	0,0000000E+000	0,0000000E+000	2,266600107686827E+000	6,9964850E-001	-1,9175992E+003	0,0000000E+000	0,0000000E+000	1,000000000000000E+000	7	0,0000000E+000	0,0000000E+000	0,0000000E+000	0,0000000E+000	0,0000000E+000	0,0000000E+000
0,0000000E+000	0,0000000E+000	0,0000000E+000	0,0000000E+000	0,0000000E+000	3,266600155184278E+000	6,9965136E-001	-1,9237029E+003	0,0000000E+000	0,0000000E+000	1,000000000000000E+000	7	0,0000000E+000	0,0000000E+000	0,0000000E+000	0,0000000E+000	0,0000000E+000	0,0000000E+000
0,0000000E+000	0,0000000E+000	0,0000000E+000	0,0000000E+000	0,0000000E+000	4,266600202681730E+000	6,9965166E-001	-1,9301359E+003	0,0000000E+000	0,0000000E+000	1,000000000000000E+000	7	0,0000000E+000	0,0000000E+000	0,0000000E+000	0,0000000E+000	0,0000000E+000	0,0000000E+000
0,0000000E+000	0,0000000E+000	0,0000000E+000	0,0000000E+000	0,0000000E+000	5,266600250179181E+000	6,9965166E-001	-1,9363447E+003	0,0000000E+000	0,0000000E+000	1,000000000000000E+000	7	0,0000000E+000	0,0000000E+000	0,0000000E+000	0,0000000E+000	0,0000000E+000	0,0000000E+000
0,0000000E+000	0,0000000E+000	0,0000000E+000	0,0000000E+000	0,0000000E+000	6,266600297676632E+000	6,9964671E-001	-1,9420035E+003	0,0000000E+000	0,0000000E+000	1,000000000000000E+000	7	0,0000000E+000	0,0000000E+000	0,0000000E+000	0,0000000E+000	0,0000000E+000	0,0000000E+000
0,0000000E+000	0,0000000E+000	0,0000000E+000	0,0000000E+000	0,0000000E+000	7,266600345174083E+000	6,9965172E-001	-1,9470308E+003	0,0000000E+000	0,0000000E+000	1,000000000000000E+000	7	0,0000000E+000	0,0000000E+000	0,0000000E+000	0,0000000E+000	0,0000000E+000	0,0000000E+000
0,0000000E+000	0,0000000E+000	0,0000000E+000	0,0000000E+000	0,0000000E+000	8,266600392671535E+000	6,9964731E-001	-1,9518231E+003	0,0000000E+000	0,0000000E+000	1,000000000000000E+000	7	0,0000000E+000	0,0000000E+000	0,0000000E+000	0,0000000E+000	0,0000000E+000	0,0000000E+000
0,0000000E+000	0,0000000E+000	0,0000000E+000	0,0000000E+000	0,0000000E+000	9,266600440168986E+000	6,9964844E-001	-1,9562167E+003	0,0000000E+000	0,0000000E+000	1,000000000000000E+000	7	0,0000000E+000	0,0000000E+000	0,0000000E+000	0,0000000E+000	0,0000000E+000	0,0000000E+000
0,0000000E+000	0,0000000E+000	0,0000000E+000	0,0000000E+000	0,0000000E+000	1,026660048766644E+001	6,9964772E-001	-1,9602408E+003	0,0000000E+000	0,0000000E+000	1,000000000000000E+000	7	0,0000000E+000	0,0000000E+000	0,0000000E+000	0,0000000E+000	0,0000000E+000	0,0000000E+000
0,0000000E+000	0,0000000E+000	0,0000000E+000	0,0000000E+000	0,0000000E+000	1,126660053516389E+001	6,9965076E-001	-1,9636792E+003	0,0000000E+000	0,0000000E+000	1,000000000000000E+000	7	0,0000000E+000	0,0000000E+000	0,0000000E+000	0,0000000E+000	0,0000000E+000	0,0000000E+000
0,0000000E+000	0,0000000E+000	0,0000000E+000	0,0000000E+000	0,0000000E+000	1,226660058266134E+001	6,9964957E-001	-1,9663850E+003	0,0000000E+000	0,0000000E+000	1,000000000000000E+000	7	0,0000000E+000	0,0000000E+000	0,0000000E+000	0,0000000E+000	0,0000000E+000	0,0000000E+000
0,0000000E+000	0,0000000E+000	0,0000000E+000	0,0000000E+000	0,0000000E+000	1,326660063015879E+001	6,9965249E-001	-1,9690394E+003	0,0000000E+000	0,0000000E+000	1,000000000000000E+000	7	0,0000000E+000	0,0000000E+000	0,0000000E+000	0,0000000E+000	0,0000000E+000	0,0000000E+000
0,0000000E+000	0,0000000E+000	0,0000000E+000	0,0000000E+000	0,0000000E+000	1,426660067765624E+001	6,9965225E-001	-1,9716512E+003	0,0000000E+000	0,0000000E+000	1,000000000000000E+000	7	0,0000000E+000	0,0000000E+000	0,0000000E+000	0,0000000E+000	0,0000000E+000	0,0000000E+000
0,0000000E+000	0,0000000E+000	0,0000000E+000	0,0000000E+000	0,0000000E+000	1,526660072515369E+001	6,9964886E-001	-1,9742720E+003	0,0000000E+000	0,0000000E+000	1,000000000000000E+000	7	0,0000000E+000	0,0000000E+000	0,0000000E+000	0,0000000E+000	0,0000000E+000	0,0000000E+000
0,0000000E+000	0,0000000E+000	0,0000000E+000	0,0000000E+000	0,0000000E+000	1,626660077265115E+001	6,9965273E-001	-1,9767738E+003	0,0000000E+000	0,0000000E+000	1,000000000000000E+000	7	0,0000000E+000	0,0000000E+000	0,0000000E+000	0,0000000E+000	0,0000000E+000	0,0000000E+000
0,0000000E+000	0,0000000E+000	0,0000000E+000	0,0000000E+000	0,0000000E+000	1,726660082014860E+001	6,9965070E-001	-1,9791921E+003	0,0000000E+000	0,0000000E+000	1,000000000000000E+000	7	0,0000000E+000	0,0000000E+000	0,0000000E+000	0,0000000E+000	0,0000000E+000	0,0000000E+000
0,0000000E+000	0,0000000E+000	0,0000000E+000	0,0000000E+000	0,0000000E+000	1,826660086764605E+001	6,9965094E-001	-1,9814065E+003	0,0000000E+000	0,0000000E+000	1,000000000000000E+000	7	0,0000000E+000	0,0000000E+000	0,0000000E+000	0,0000000E+000	0,0000000E+000	0,0000000E+000
0,0000000E+000	0,0000000E+000	0,0000000E+000	0,0000000E+000	0,0000000E+000	1,926660091514350E+001	6,9965285E-001	-1,9833729E+003	0,0000000E+000	0,0000000E+000	1,000000000000000E+000	7	0,0000000E+000	0,0000000E+000	0,0000000E+000	0,0000000E+000	0,0000000E+000	0,0000000E+000
0,0000000E+000	0,0000000E+000	0,0000000E+000	0,0000000E+000	0,0000000E+000	2,026660096264095E+001	6,9965428E-001	-1,9854895E+003	0,0000000E+000	0,0000000E+000	1,000000000000000E+000	7	0,0000000E+000	0,0000000E+000	0,0000000E+000	0,0000000E+000	0,0000000E+000	0,0000000E+000
0,0000000E+000	0,0000000E+000	0,0000000E+000	0,0000000E+000	0,0000000E+000	2,126660101013840E+001	6,9965619E-001	-1,9875054E+003	0,0000000E+000	0,0000000E+000	1,000000000000000E+000	7	0,0000000E+000	0,0000000E+000	0,0000000E+000	0,0000000E+000	0,0000000E+000	0,0000000E+000
0,0000000E+000	0,0000000E+000	0,0000000E+000	0,0000000E+000	0,0000000E+000	2,226660105763585E+001	6,9965816E-001	-1,9893950E+003	0,0000000E+000	0,0000000E+000	1,000000000000000E+000	7	0,0000000E+000	0,0000000E+000	0,0000000E+000	0,0000000E+000	0,0000000E+000	0,0000000E+000
0,0000000E+000	0,0000000E+000	0,0000000E+000	0,0000000E+000	0,0000000E+000	2,326660110513330E+001	6,9965684E-001	-1,9913848E+003	0,0000000E+000	0,0000000E+000	1,000000000000000E+000	7	0,0000000E+000	0,0000000E+000	0,0000000E+000	0,0000000E+000	0,0000000E+000	0,0000000E+000
0,0000000E+000	0,0000000E+000	0,0000000E+000	0,0000000E+000	0,0000000E+000	2,426660115263076E+001	6,9965643E-001	-1,9932227E+003	0,0000000E+000	0,0000000E+000	1,000000000000000E+000	7	0,0000000E+000	0,0000000E+000	0,0000000E+000	0,0000000E+000	0,0000000E+000	0,0000000E+000
0,0000000E+000	0,0000000E+000	0,0000000E+000	0,0000000E+000	0,0000000E+000	2,526660120012821E+001	6,9965196E-001	-1,9948585E+003	0,0000000E+000	0,0000000E+000	1,000000000000000E+000	7	0,0000000E+000	0,0000000E+000	0,0000000E+000	0,0000000E+000	0,0000000E+000	0,0000000E+000
0,0000000E+000	0,0000000E+000	0,0000000E+000	0,0000000E+000	0,0000000E+000	2,626660124762566E+001	6,9965225E-001	-1,9965289E+003	0,0000000E+000	0,0000000E+000	1,000000000000000E+000	7	0,0000000E+000	0,0000000E+000	0,0000000E+000	0,0000000E+000	0,0000000E+000	0,0000000E+000
0,0000000E+000	0,0000000E+000	0,0000000E+000	0,0000000E+000	0,0000000E+000	2,726660129512311E+001	6,9965214E-001	-1,9980487E+003	0,0000000E+000	0,0000000E+000	1,000000000000000E+000	7	0,0000000E+000	0,0000000E+000	0,0000000E+000	0,0000000E+000	0,0000000E+000	0,0000000E+000
0,0000000E+000	0,0000000E+000	0,0000000E+000	0,0000000E+000	0,0000000E+000	2,826660134262056E+001	6,9965762E-001	-1,9996390E+003	0,0000000E+000	0,0000000E+000	1,000000000000000E+000	7	0,0000000E+000	0,0000000E+000	0,0000000E+000	0,0000000E+000	0,0000000E+000	0,0000000E+000
0,0000000E+000	0,0000000E+000	0,0000000E+000	0,0000000E+000	0,0000000E+000	2,926660139011801E+001	6,9965535E-001	-2,0009791E+003	0,0000000E+000	0,0000000E+000	1,000000000000000E+000	7	0,0000000E+000	0,0000000E+000	0,0000000E+000	0,0000000E+000	0,0000000E+000	0,0000000E+000
2,0001948E+005	3,9370786E-003	-4,9298048E-002	4,9455009E-002	8,5433891E+001	3,119709284175769E+001	6,9886959E-001	-2,0159403E+003	-1,6140541E+001	-1,6038250E+001	1,000000000000000E+000	7	2,0729459E-004	4,1915793E-003	1,6097318E+000	-2,0156221E+001	2,0220398E+001	-8,5433891E+001
1,7153316E+005	1,4981396E-002	-4,7830150E-002	5,0121505E-002	7,2608360E+001	3,196208047811524E+001	6,9888407E-001	-2,0165725E+003	-1,9398598E+001	-1,7665485E+001	1,000000000000000E+000	7	3,1261888E-004	6,2372205E-003	5,9635386E+000	-1,9039412E+001	1,9951515E+001	-7,2608360E+001
1,4710933E+005	1,6251365E-002	-4,3870997E-002	4,6784304E-002	6,9673592E+001	3,272909072789480E+001	6,9890356E-001	-2,0171816E+003	-2,4660532E+001	-2,1684881E+001	1,000000000000000E+000	7	3,1955657E-004	6,8304227E-003	7,4248815E+000	-2,0043667E+001	2,1374691E+001	-6,9673592E+001
1,2617185E+005	2,0094588E-002	-3,7251417E-002	4,2325649E-002	6,1656178E+001	3,349507961759809E+001	6,9890630E-001	-2,0179578E+003	-3,3862175E+001	-2,6229692E+001	1,000000000000000E+000	7	4,2179553E-004	9,9654831E-003	1,1216874E+001	-2,0793880E+001	2,3626335E+001	-6,1656178E+001
1,0821287E+005	2,2171423E-002	-3,1278811E-002	3,8339745E-002	5,4669765E+001	3,425907765387092E+001	6,9891202E-001	-2,0187562E+003	-4,7020905E+001	-3,1296301E+001	1,000000000000000E+000	7	5,3313817E-004	1,3905627E-002	1,5083257E+001	-2,1279030E+001	2,6082594E+001	-5,4669765E+001
9,2802711E+004	2,3722509E-002	-2,7118176E-002	3,6029890E-002	4,8821129E+001	3,502309947684989E+001	6,9891602E-001	-2,0191000E+003	-6,3241043E+001	-3,5825649E+001	1,000000000000000E+000	7	6,8680092E-004	1,9061977E-002	1,8274048E+001	-2,0889816E+001	2,7754734E+001	-4,8821129E+001
7,9589828E+004	2,4311056E-002	-2,2801174E-002	3,3330481E-002	4,3164379E+001	3,578809916650062E+001	6,9892842E-001	-2,0196963E+003	-8,7701172E+001	-4,1042763E+001	1,000000000000000E+000	7	8,6166867E-004	2,5852272E-002	2,1883696E+001	-2,0524569E+001	3,0002567E+001	-4,3164379E+001
6,8261695E+004	2,4582742E-002	-1,9214723E-002	3,1201230E-002	3,8012417E+001	3,655309616282466E+001	6,9893909E-001	-2,0203892E+003	-1,2134138E+002	-4,6018639E+001	1,000000000000000E+000	7	1,0842457E-003	3,4750096E-002	2,5251482E+001	-1,9737434E+001	3,2050018E+001	-3,8012417E+001
5,8544910E+004	2,5067030E-002	-1,6360108E-002	2,9933412E-002	3,3130653E+001	3,731907627923647E+001	6,9892585E-001	-2,0211941E+003	-1,6616701E+002	-4,9636906E+001	1,000000000000000E+000	7	1,3809875E-003	4,6135318E-002	2,7976313E+001	-1,8258863E+001	3,3407486E+001	-3,3130653E+001
5,0214828E+004	2,5352541E-002	-1,3674982E-002	2,8805494E-002	2,8342112E+001	3,808509703559685E+001	6,9893974E-001	-2,0215734E+003	-2,3177222E+002	-5,2235321E+001	1,000000000000000E+000	7	1,7564524E-003	6,0976297E-002	3,0554193E+001	-1,6480717E+001	3,4715599E+001	-2,8342112E+001
4,3066391E+004	2,5584415E-002	-1,1433127E-002	2,8022824E-002	2,4078844E+001	3,884909243186121E+001	6,9894111E-001	-2,0223368E+003	-3,2323367E+002	-5,3805031E+001	1,000000000000000E+000	7	2,2554058E-003	8,0484599E-002	3,2580044E+001	-1,4559323E+001	3,5685196E+001	-2,4078844E+001
3,6933582E+004	2,5815770E-002	-9,4632478E-003	2,7495582E-002	2,0131346E+001	3,961407804157352E+001	6,9895416E-001	-2,0227798E+003	-4,5536377E+002	-5,3940266E+001	1,000000000000000E+000	7	2,9420811E-003	1,0700196E-001	3,4147526E+001	-1,2517408E+001	3,6369480E+001	-2,0131346E+001
3,1679682E+004	2,6035290E-002	-7,7844346E-003	2,7174138E-002	1,6646427E+001	4,038107946465607E+001	6,9895315E-001	-2,0234800E+003	-6,4537518E+002	-5,2960838E+001	1,000000000000000E+000	7	3,9376952E-003	1,4490598E-001	3,5257450E+001	-1,0541819E+001	3,6799698E+001	-1,6646427E+001
2,7167961E+004	2,6228571E-002	-6,3664271E-003	2,6990172E-002	1,3643470E+001	4,102209040176240E+001	6,9894999E-001	-2,0238870E+003	-9,2016846E+002	-5,1197361E+001	1,000000000000000E+000	7	5,4356903E-003	2,0139517E-001	3,6005047E+001	-8,7394581E+000	3,7050526E+001	-1,3643470E+001
2,3300775E+004	2,6409509E-002	-5,1906989E-003	2,6914783E-002	1,1119552E+001	4,178808027817286E+001	6,9917375E-001	-2,0208784E+003	-1,3159031E+003	-4,8943363E+001	1,000000000000000E+000	7	5,2725794E-003	1,9589901E-001	3,6456802E+001	-7,1654606E+000	3,7154305E+001	-1,1119552E+001
1,9980465E+004	2,6557246E-002	-4,1928170E-003	2,6886187E-002	8,9717169E+000	4,255409138117102E+001	6,9930333E-001	-2,0191649E+003	-1,8998032E+003	-4,6202133E+001	1,000000000000000E+000	7	5,2402024E-003	1,9490314E-001	3,6738770E+001	-5,8002605E+000	3,7193821E+001	-8,9717169E+000
1,7138664E+004	2,6697520E-002	-3,2829614E-003	2,6898613E-002	7,0103984E+000	4,331807835082873E+001	6,9939417E-001	-2,0184716E+003	-2,8286382E+003	-4,2135601E+001	1,000000000000000E+000	7	5,2093575E-003	1,9366640E-001	3,6898708E+001	-4,5373893E+000	3,7176640E+001	-7,0103984E+000
1,4697262E+004	2,6803605E-002	-2,4929650E-003	2,6919289E-002	5,3137112E+000	4,408308457382373E+001	6,9945449E-001	-2,0180624E+003	-4,3437773E+003	-3,7253986E+001	1,000000000000000E+000	7	5,1708552E-003	1,9208737E-001	3,6988441E+001	-3,4402418E+000	3,7148083E+001	-5,3137112E+000
1,2607416E+004	2,6930576E-002	-1,7451213E-003	2,6987059E-002	3,7076252E+000	4,485009482360329E+001	6,9949561E-001	-2,0177866E+003	-7,2338315E+003	-3,0248827E+001	1,000000000000000E+000	7	5,1457607E-003	1,9067512E-001	3,6977242E+001	-2,3961527E+000	3,7054798E+001	-3,7076252E+000
1,0810545E+004	2,7060529E-002	-1,0997836E-003	2,7082868E-002	2,3273122E+000	4,561408789988491E+001	6,9952440E-001	-2,0179525E+003	-1,3386446E+004	-2,2074480E+001	1,000000000000000E+000	7	5,1149172E-003	1,8886173E-001	3,6893253E+001	-1,4994015E+000	3,6923710E+001	-2,3273122E+000
9,2716768E+003	2,7240044E-002	-5,4104748E-004	2,7245415E-002	1,1378711E+000	4,642103239154676E+001	6,9953966E-001	-2,0182672E+003	-3,1726813E+004	-1,2511528E+001	1,000000000000000E+000	7	5,1121702E-003	1,8763414E-001	3,6696186E+001	-7,2886729E-001	3,6703423E+001	-1,1378711E+000
8,0971626E+003	2,7378123E-002	-4,5099849E-005	2,7378161E-002	9,4382972E-002	4,731917411417817E+001	6,9958383E-001	-2,0181323E+003	-4,3582503E+005	-1,1826434E+000	1,000000000000000E+000	7	5,0998409E-003	1,8627405E-001	3,6525414E+001	-6,0168136E-002	3,6525463E+001	-9,4382972E-002
6,8192715E+003	2,7599467E-002	4,9395184E-004	2,7603887E-002	-1,0253217E+000	4,835072173655499E+001	6,9957393E-001	-2,0186725E+003	4,7249535E+004	1,5129560E+001	1,000000000000000E+000	7	5,1130536E-003	1,8522948E-001	3,6220982E+001	6,4825237E-001	3,6226784E+001	1,0253217E+000
5,8593740E+003	2,7771240E-002	9,4118639E-004	2,7787184E-002	-1,9410503E+000	4,952330389889539E+001	6,9958347E-001	-2,0194126E+003	2,8859797E+004	3,3109718E+001	1,000000000000000E+000	7	5,1022316E-003	1,8361816E-001	3,5967163E+001	1,2189518E+000	3,5987812E+001	1,9410503E+000
5,0166045E+003	2,8008925E-002	1,3577914E-003	2,8041817E-002	-2,7753603E+000	5,084869921520294E+001	6,9959009E-001	-2,0199152E+003	2,3365615E+004	5,4781132E+001	1,000000000000000E+000	7	5,0979964E-003	1,8179978E-001	3,5619198E+001	1,7267153E+000	3,5661026E+001	2,7753603E+000
4,3008701E+003	2,8244358E-002	1,7759856E-003	2,8300138E-002	-3,5979819E+000	5,217295975808520E+001	6,9959933E-001	-2,0210463E+003	2,0836480E+004	8,2058983E+001	1,000000000000000E+000	7	5,0977562E-003	1,8013185E-001	3,5265869E+001	2,2174933E+000	3,5335518E+001	3,5979819E+000
3,6911804E+003	2,8505705E-002	2,1280188E-003	2,8585026E-002	-4,2693472E+000	5,349769800768991E+001	6,9960541E-001	-2,0216777E+003	2,0261865E+004	1,1229311E+002	1,000000000000000E+000	7	5,1005636E-003	1,7843480E-001	3,4886276E+001	2,6043437E+000	3,4983353E+001	4,2693472E+000
3,1660125E+003	2,8783416E-002	2,4965296E-003	2,8891481E-002	-4,9571433E+000	5,482166532391420E+001	6,9960201E-001	-2,0221880E+003	2,0135889E+004	1,5035040E+002	1,000000000000000E+000	7	5,0956290E-003	1,7637134E-001	3,4482815E+001	2,9908669E+000	3,4612278E+001	4,9571433E+000
2,7158684E+003	2,9069422E-002	2,8401786E-003	2,9207841E-002	-5,5802755E+000	5,614567760013597E+001	6,9961345E-001	-2,0230437E+003	2,0633160E+004	1,9510039E+002	1,000000000000000E+000	7	5,1115714E-003	1,7500682E-001	3,4075127E+001	3,3292525E+000	3,4237381E+001	5,5802755E+000
2,3277646E+003	2,9391030E-002	3,1947626E-003	2,9564153E-002	-6,2036123E+000	5,747095304972027E+001	6,9961572E-001	-2,0240460E+003	2,1401414E+004	2,4991296E+002	1,000000000000000E+000	7	5,0884392E-003	1,7211516E-001	3,3626671E+001	3,6551707E+000	3,3824745E+001	6,2036123E+000
1,9956382E+003	2,9712286E-002	3,5239593E-003	2,9920531E-002	-6,7638412E+000	5,879470604595554E+001	6,9961590E-001	-2,0246974E+003	2,2631191E+004	3,1392841E+002	1,000000000000000E+000	7	5,0942875E-003	1,7026059E-001	3,3189251E+001	3,9363370E+000	3,3421867E+001	6,7638412E+000
1,7127399E+003	3,0073525E-002	3,8692378E-003	3,0321410E-002	-7,3313575E+000	6,011844760211534E+001	6,9962460E-001	-2,0255076E+003	2,4016145E+004	3,9107077E+002	1,000000000000000E+000	7	5,0900690E-003	1,6787046E-001	3,2710377E+001	4,2084928E+000	3,2979996E+001	7,3313575E+000
1,4685897E+003	3,0455124E-002	4,2217067E-003	3,0746339E-002	-7,8920794E+000	6,144291755839367E+001	6,9962204E-001	-2,0264197E+003	2,5670342E+004	4,8397275E+002	1,000000000000000E+000	7	5,0900932E-003	1,6555120E-001	3,2216141E+001	4,4658198E+000	3,2524197E+001	7,8920794E+000
1,2587914E+003	3,0830089E-002	4,5742719E-003	3,1167585E-002	-8,4394274E+000	6,276792266132543E+001	6,9962728E-001	-2,0272589E+003	2,7640404E+004	5,9536322E+002	1,000000000000000E+000	7	5,0516757E-003	1,6208108E-001	3,1737188E+001	4,7088580E+000	3,2084614E+001	8,4394274E+000
1,0803456E+003	3,1253256E-002	4,9619363E-003	3,1644698E-002	-9,0212927E+000	6,409268125759263E+001	6,9962734E-001	-2,0279033E+003	2,9689729E+004	7,2997278E+002	1,000000000000000E+000	7	5,1240139E-003	1,6192329E-001	3,1209972E+001	4,9550638E+000	3,1600870E+001	9,0212927E+000
9,2648248E+002	3,1726327E-002	5,3064860E-003	3,2167044E-002	-9,4952917E+000	6,541540684035863E+001	6,9962907E-001	-2,0285283E+003	3,2372473E+004	8,8098322E+002	1,000000000000000E+000	7	5,0658984E-003	1,5748723E-001	3,0661791E+001	5,1284342E+000	3,1087719E+001	9,4952917E+000
7,9423767E+002	3,2208536E-002	5,7417811E-003	3,2716323E-002	-1,0107875E+001	6,673991732997820E+001	6,9962907E-001	-2,0289896E+003	3,4899809E+004	1,0749476E+003	1,000000000000000E+000	7	5,0260578E-003	1,5362538E-001	3,0091373E+001	5,3643570E+000	3,0565783E+001	1,0107875E+001
6,8108966E+002	3,2748792E-002	6,1637470E-003	3,3323795E-002	-1,0659112E+001	6,806142891271156E+001	6,9962585E-001	-2,0295707E+003	3,7911508E+004	1,2970352E+003	1,000000000000000E+000	7	5,0371755E-003	1,5115853E-001	2,9490789E+001	5,5505486E+000	3,0008587E+001	1,0659112E+001
5,8443884E+002	3,3300065E-002	6,6482066E-003	3,3957221E-002	-1,1290400E+001	6,916896491200896E+001	6,9963324E-001	-2,0299517E+003	4,0961566E+004	1,5700782E+003	1,000000000000000E+000	7	5,4443693E-003	1,6033024E-001	2,8878910E+001	5,7655435E+000	2,9448818E+001	1,1290400E+001
5,0144406E+002	3,3917841E-002	7,1165184E-003	3,4656379E-002	-1,1849703E+001	7,048718884130358E+001	6,9964015E-001	-2,0304652E+003	4,4599508E+004	1,8806104E+003	1,000000000000000E+000	7	5,1124268E-003	1,4751762E-001	2,8239813E+001	5,9251752E+000	2,8854717E+001	1,1849703E+001
4,3013754E+002	3,4610543E-002	7,6090074E-003	3,5437081E-002	-1,2399031E+001	7,159466956058895E+001	6,9963431E-001	-2,0309642E+003	4,8627816E+004	2,2419448E+003	1,000000000000000E+000	7	5,3622271E-003	1,5131684E-001	2,7560844E+001	6,0591559E+000	2,8219028E+001	1,2399031E+001
3,6870209E+002	3,5348892E-002	8,1626894E-003	3,6279108E-002	-1,3002700E+001	7,292245490362984E+001	6,9963354E-001	-2,0316144E+003	5,2882410E+004	2,6771001E+003	1,000000000000000E+000	7	5,0560017E-003	1,3936400E-001	2,6857315E+001	6,2018328E+000	2,7564074E+001	1,3002700E+001
3,1631577E+002	3,6172219E-002	8,6930506E-003	3,7202131E-002	-1,3513282E+001	7,402490967599442E+001	6,9963491E-001	-2,0320587E+003	5,7879813E+004	3,1603550E+003	1,000000000000000E+000	7	5,1760394E-003	1,3913287E-001	2,6136023E+001	6,2811122E+000	2,6880180E+001	1,3513282E+001
2,7112781E+002	3,7078295E-002	9,2391660E-003	3,8212068E-002	-1,3992010E+001	7,512789751504897E+001	6,9963300E-001	-2,0326372E+003	6,3535043E+004	3,7143066E+003	1,000000000000000E+000	7	5,2544293E-003	1,3750707E-001	2,5393272E+001	6,3274927E+000	2,6169743E+001	1,3992010E+001
2,3269162E+002	3,8083397E-002	9,7796014E-003	3,9319023E-002	-1,4402043E+001	7,624572660816193E+001	6,9963640E-001	-2,0329827E+003	6,9938813E+004	4,3266831E+003	1,000000000000000E+000	7	5,3022252E-003	1,3485140E-001	2,4633732E+001	6,3258038E+000	2,5432981E+001	1,4402043E+001
1,9955299E+002	3,9169542E-002	1,0289765E-002	4,0498547E-002	-1,4718923E+001	7,735320919405785E+001	6,9962960E-001	-2,0337802E+003	7,7509766E+004	5,0036675E+003	1,000000000000000E+000	7	5,3224284E-003	1,3142270E-001	2,3881941E+001	6,2737408E+000	2,4692244E+001	1,4718923E+001
1,7115007E+002	4,0397983E-002	1,0805838E-002	4,1818216E-002	-1,4975161E+001	7,845340039298753E+001	6,9963425E-001	-2,0340873E+003	8,6056688E+004	5,7460645E+003	1,000000000000000E+000	7	5,3343149E-003	1,2755960E-001	2,3100887E+001	6,1791315E+000	2,3913023E+001	1,4975161E+001
1,4673729E+002	4,1745309E-002	1,1225326E-002	4,3228216E-002	-1,5050833E+001	7,954739529828657E+001	6,9962531E-001	-2,0343395E+003	9,6623031E+004	6,5154429E+003	1,000000000000000E+000	7	5,3332117E-003	1,2337340E-001	2,2339479E+001	6,0070930E+000	2,3133039E+001	1,5050833E+001
1,2584568E+002	4,3158147E-002	1,1647328E-002	4,4702191E-002	-1,5102928E+001	8,064841361725121E+001	6,9963074E-001	-2,0348855E+003	1,0858142E+005	7,3714087E+003	1,000000000000000E+000	7	5,3260797E-003	1,1914583E-001	2,1597584E+001	5,8286595E+000	2,2370268E+001	1,5102928E+001
1,0796163E+002	4,4670776E-002	1,1833106E-002	4,6211477E-002	-1,4836655E+001	8,177454831069917E+001	6,9963253E-001	-2,0355209E+003	1,2458102E+005	8,1686396E+003	1,000000000000000E+000	7	5,3124502E-003	1,1495955E-001	2,0918177E+001	5,5411391E+000	2,1639647E+001	1,4836655E+001
9,2542076E+001	4,6266977E-002	1,1892783E-002	4,7771033E-002	-1,4415616E+001	8,290706705788034E+001	6,9963646E-001	-2,0360747E+003	1,4460970E+005	8,9626240E+003	1,000000000000000E+000	7	5,3015114E-003	1,1097753E-001	2,0274113E+001	5,2113981E+000	2,0933187E+001	1,4415616E+001
7,9415459E+001	4,7886964E-002	1,1781723E-002	4,9315009E-002	-1,3822066E+001	8,401924593732110E+001	6,9963694E-001	-2,0360342E+003	1,7010075E+005	9,7088018E+003	1,000000000000000E+000	7	5,2913255E-003	1,0729645E-001	1,9690603E+001	4,8445177E+000	2,0277802E+001	1,3822066E+001
6,8019264E+001	4,9453940E-002	1,1527612E-002	5,0779700E-002	-1,3121231E+001	8,515656676466460E+001	6,9963253E-001	-2,0368049E+003	2,0297794E+005	1,0460375E+004	1,000000000000000E+000	7	5,2774767E-003	1,0392886E-001	1,9178764E+001	4,4705305E+000	1,9692909E+001	1,3121231E+001
5,8447632E+001	5,0950214E-002	1,1118676E-002	5,2149300E-002	-1,2310447E+001	8,629004124522908E+001	6,9962794E-001	-2,0373822E+003	2,4490641E+005	1,1132926E+004	1,000000000000000E+000	7	5,2674795E-003	1,0100768E-001	1,8734800E+001	4,0884256E+000	1,9175713E+001	1,2310447E+001
5,0080124E+001	5,2358359E-002	1,0534609E-002	5,3407639E-002	-1,1376141E+001	8,739442284431425E+001	6,9962865E-001	-2,0374092E+003	3,0167294E+005	1,1737251E+004	1,000000000000000E+000	7	5,2561075E-003	9,8414898E-002	1,8356052E+001	3,6932752E+000	1,8723913E+001	1,1376141E+001
4,2978291E+001	5,3651281E-002	9,8451944E-003	5,4547116E-002	-1,0398287E+001	8,854816636579926E+001	6,9962913E-001	-2,0380500E+003	3,7613756E+005	1,2253262E+004	1,000000000000000E+000	7	5,2524600E-003	9,6292168E-002	1,8031694E+001	3,3088777E+000	1,8332775E+001	1,0398287E+001
3,6851406E+001	5,4816108E-002	9,0804826E-003	5,5563126E-002	-9,4058342E+000	8,960469633602042E+001	6,9963193E-001	-2,0384456E+003	4,7561675E+005	1,2702864E+004	1,000000000000000E+000	7	5,2490220E-003	9,4469525E-002	1,7755579E+001	2,9412746E+000	1,7997547E+001	9,4058342E+000
3,1586922E+001	5,5754703E-002	8,1930691E-003	5,6353468E-002	-8,3596983E+000	9,066069390617486E+001	6,9962901E-001	-2,0390819E+003	6,1498744E+005	1,2999246E+004	1,000000000000000E+000	7	5,2427119E-003	9,3032636E-002	1,7556591E+001	2,5799146E+000	1,7745136E+001	8,3596983E+000
2,7089109E+001	5,6471825E-002	7,3612588E-003	5,6949586E-002	-7,4267874E+000	9,169131416841992E+001	6,9963127E-001	-2,0395642E+003	7,9812944E+005	1,3335103E+004	1,000000000000000E+000	7	5,2313074E-003	9,1858566E-002	1,7412083E+001	2,2697132E+000	1,7559391E+001	7,4267874E+000
2,3251482E+001	5,7178851E-002	6,6010687E-003	5,7558622E-002	-6,5854149E+000	9,287482185133558E+001	6,9962913E-001	-2,0397523E+003	1,0369439E+006	1,3638386E+004	1,000000000000000E+000	7	5,2345302E-003	9,0942591E-002	1,7258961E+001	1,9924779E+000	1,7373592E+001	6,5854149E+000
1,9929846E+001	5,7692986E-002	5,7546305E-003	5,7979275E-002	-5,6961699E+000	9,398445126399747E+001	6,9962716E-001	-2,0404437E+003	1,3877100E+006	1,3670616E+004	1,000000000000000E+000	7	5,2315262E-003	9,0230972E-002	1,7162378E+001	1,7118744E+000	1,7247543E+001	5,6961699E+000
1,7082724E+001	5,8130890E-002	5,0276704E-003	5,8347903E-002	-4,9431419E+000	9,496934176413924E+001	6,9963199E-001	-2,0405128E+003	1,8530889E+006	1,3758761E+004	1,000000000000000E+000	7	5,2319244E-003	8,9667737E-002	1,7074833E+001	1,4767817E+000	1,7138577E+001	4,9431419E+000
1,4666765E+001	5,8459211E-002	4,3855160E-003	5,8623478E-002	-4,2902012E+000	9,609932029779884E+001	6,9962889E-001	-2,0407875E+003	2,4743725E+006	1,3847243E+004	1,000000000000000E+000	7	5,2343169E-003	8,9287043E-002	1,7010214E+001	1,2760789E+000	1,7058012E+001	4,2902012E+000
1,2573762E+001	5,8680918E-002	3,7525347E-003	5,8800779E-002	-3,6589754E+000	9,740135457293945E+001	6,9963676E-001	-2,0414911E+003	3,3731075E+006	1,3737683E+004	1,000000000000000E+000	7	5,2287593E-003	8,8923298E-002	1,6971910E+001	1,0853218E+000	1,7006577E+001	3,6589754E+000
1,0790743E+001	5,8827609E-002	3,2381508E-003	5,8916662E-002	-3,1506522E+000	9,843510486205923E+001	6,9962853E-001	-2,0416819E+003	4,5548250E+006	1,3759086E+004	1,000000000000000E+000	7	5,2282820E-003	8,8740297E-002	1,6947472E+001	9,3286932E-001	1,6973127E+001	3,1506522E+000
9,2565126E+000	5,8945738E-002	2,7965591E-003	5,9012040E-002	-2,7162435E+000	9,962379774522560E+001	6,9962555E-001	-2,0415206E+003	6,1482105E+006	1,3807514E+004	1,000000000000000E+000	7	5,2287821E-003	8,8605344E-002	1,6926655E+001	8,0305028E-001	1,6945694E+001	2,7162435E+000
7,9395342E+000	5,9053849E-002	2,3601539E-003	5,9100993E-002	-2,2886727E+000	1,009916767168688E+002	6,9963324E-001	-2,0417037E+003	8,4934630E+006	1,3544903E+004	1,000000000000000E+000	7	5,2292864E-003	8,8480517E-002	1,6906693E+001	6,7569506E-001	1,6920189E+001	2,2886727E+000
6,8053131E+000	5,9046321E-002	1,9567923E-003	5,9078734E-002	-1,8980848E+000	1,018366529703417E+002	6,9963002E-001	-2,0422640E+003	1,1951634E+007	1,3111561E+004	1,000000000000000E+000	7	5,2276794E-003	8,8486649E-002	1,6917278E+001	5,6063777E-001	1,6926565E+001	1,8980848E+000
5,8389378E+000	5,9109166E-002	1,6356537E-003	5,9131794E-002	-1,5850697E+000	1,028030039495497E+002	6,9962984E-001	-2,0424865E+003	1,6664603E+007	1,2750745E+004	1,000000000000000E+000	7	5,2294186E-003	8,8436663E-002	1,6904905E+001	4,6778822E-001	1,6911377E+001	1,5850697E+000
5,0015993E+000	5,9110906E-002	1,3862061E-003	5,9127159E-002	-1,3433934E+000	1,039117093088935E+002	6,9963342E-001	-2,0426312E+003	2,2955322E+007	1,2617259E+004	1,000000000000000E+000	7	5,2287374E-003	8,8432074E-002	1,6908052E+001	3,9650965E-001	1,6912701E+001	1,3433934E+000
4,2925820E+000	5,9064861E-002	1,1801070E-003	5,9076648E-002	-1,1446087E+000	1,051837380359793E+002	6,9962883E-001	-2,0430287E+003	3,1418118E+007	1,2536931E+004	1,000000000000000E+000	7	5,2271113E-003	8,8480160E-002	1,6923784E+001	3,3813468E-001	1,6927162E+001	1,1446087E+000
3,6782012E+000	5,9079655E-002	9,6265320E-004	5,9087496E-002	-9,3350381E-001	1,066536754658009E+002	6,9963557E-001	-2,0433296E+003	4,4948460E+007	1,1930629E+004	1,000000000000000E+000	7	5,2283467E-003	8,8484824E-002	1,6921808E+001	2,7572662E-001	1,6924055E+001	9,3350381E-001
3,1603959E+000	5,9020482E-002	8,2467764E-004	5,9026245E-002	-8,0052674E-001	1,083462753328204E+002	6,9963008E-001	-2,0437286E+003	6,1065288E+007	1,1919898E+004	1,000000000000000E+000	7	5,2282182E-003	8,8574469E-002	1,6939962E+001	2,3669763E-001	1,6941616E+001	8,0052674E-001
2,7070334E+000	5,9083208E-002	6,8143680E-004	5,9087139E-002	-6,6079217E-001	1,103102873727621E+002	6,9962341E-001	-2,0447252E+003	8,6278168E+007	1,1475356E+004	1,000000000000000E+000	7	5,2389833E-003	8,8665374E-002	1,6923031E+001	1,9518195E-001	1,6924156E+001	6,6079217E-001
2,3196251E+000	5,8978848E-002	5,5553636E-004	5,8981463E-002	-5,3966719E-001	1,125860214808781E+002	6,9963223E-001	-2,0454724E+003	1,2350651E+008	1,0956800E+004	1,000000000000000E+000	7	5,2289981E-003	8,8654943E-002	1,6953728E+001	1,5969136E-001	1,6954479E+001	5,3966719E-001
1,9929847E+000	5,8938812E-002	5,2599498E-004	5,8941159E-002	-5,1131827E-001	1,152186858726200E+002	6,9963574E-001	-2,0461550E+003	1,5182195E+008	1,2090950E+004	1,000000000000000E+000	7	5,2284389E-003	8,8706076E-002	1,6965397E+001	1,5140639E-001	1,6966072E+001	5,1131827E-001
1,7095184E+000	5,8846176E-002	5,0199492E-004	5,8848318E-002	-4,8875719E-001	1,182780125245627E+002	6,9963568E-001	-2,0465648E+003	1,8545862E+008	1,3495145E+004	1,000000000000000E+000	7	5,2271611E-003	8,8824309E-002	1,6992222E+001	1,4495434E-001	1,6992840E+001	4,8875719E-001
1,4663098E+000	5,8842652E-002	4,1781290E-004	5,8844134E-002	-4,0682247E-001	1,218289724532224E+002	6,9963354E-001	-2,0473793E+003	2,5978411E+008	1,3096942E+004	1,000000000000000E+000	7	5,2275197E-003	8,8836715E-002	1,6993618E+001	1,2066337E-001	1,6994047E+001	4,0682247E-001
1,2568370E+000	5,8779273E-002	3,2334466E-004	5,8780164E-002	-3,1518078E-001	1,259606943028339E+002	6,9963604E-001	-2,0493552E+003	3,9162960E+008	1,1850735E+004	1,000000000000000E+000	7	5,2266680E-003	8,8918909E-002	1,7012285E+001	9,3584545E-002	1,7012543E+001	3,1518078E-001
1,0769920E+000	5,8832750E-002	4,0675903E-004	5,8834154E-002	-3,9612639E-001	1,307707226379644E+002	6,9963408E-001	-2,0514165E+003	3,6330422E+008	1,7365441E+004	1,000000000000000E+000	7	5,2262680E-003	8,8830508E-002	1,6996523E+001	1,1751090E-001	1,6996929E+001	3,9612639E-001
9,2346287E-001	5,8902320E-002	4,6752050E-004	5,8904175E-002	-4,5475948E-001	1,363670398904069E+002	6,9963557E-001	-2,0531399E+003	3,6863795E+008	2,3222512E+004	1,000000000000000E+000	7	5,2270358E-003	8,8737950E-002	1,6976191E+001	1,3474371E-001	1,6976725E+001	4,5475948E-001
7,9202139E-001	5,8720779E-002	4,5459883E-004	5,8722537E-002	-4,4355807E-001	1,428798551597574E+002	6,9963604E-001	-2,0539983E+003	4,4203322E+008	2,6491219E+004	1,000000000000000E+000	7	5,2280813E-003	8,9030236E-002	1,7028727E+001	1,3183136E-001	1,7029238E+001	4,4355807E-001
6,8053132E-001	5,8717910E-002	4,8314774E-004	5,8719900E-002	-4,7143540E-001	1,504490372526052E+002	6,9963700E-001	-2,0556328E+003	4,8405206E+008	3,2770371E+004	1,000000000000000E+000	7	5,2252915E-003	8,8986725E-002	1,7029427E+001	1,4012298E-001	1,7030003E+001	4,7143540E-001
5,8267444E-001	5,8614329E-002	5,1724678E-004	5,8616612E-002	-5,0559795E-001	1,592770087919198E+002	6,9963831E-001	-2,0580251E+003	5,2807594E+008	4,1119758E+004	1,000000000000000E+000	7	5,2275946E-003	8,9182816E-002	1,7059347E+001	1,5054153E-001	1,7060011E+001	5,0559795E-001
5,0022399E-001	5,8745913E-002	5,1489932E-004	5,8748171E-002	-5,0217628E-001	1,695488521598163E+002	6,9963551E-001	-2,0589536E+003	6,1792147E+008	4,7466719E+004	1,000000000000000E+000	7	5,2267760E-003	8,8969171E-002	1,7021152E+001	1,4918792E-001	1,7021807E+001	5,0217628E-001