EC-Lab ASCII FILE
Nb header lines : 3
freq/Hz	Re(Z)/Ohm	-Im(Z)/Ohm	|Z|/Ohm	Phase(Z)/deg	time/s	<Ewe>/V	<I>/mA	Cs/µF	Cp/µF	cycle number	I Range	|Ewe|/V	|I|/A	Re(Y)/Ohm-1	Im(Y)/Ohm-1	|Y|/Ohm-1	Phase(Y)/deg
0,0000000E+000	0,0000000E+000	0,0000000E+000	0,0000000E+000	0,0000000E+000	1,266600060189376E+000	6,9963670E-001	-1,0995997E+003	0,0000000E+000	0,0000000E+000	1,000000000000000E+000	7	0,0000000E+000	0,0000000E+000	0,0000000E+000	0,0000000E+000	0,0000000E+000	0,0000000E+000
0,0000000E+000	0,0000000E+000	0,0000000E+000	0,0000000E+000	0,0000000E+000	2,266600107686827E+000	6,9963902E-001	-1,0984139E+003	0,0000000E+000	0,0000000E+000	1,000000000000000E+000	7	0,0000000E+000	0,0000000E+000	0,0000000E+000	0,0000000E+000	0,0000000E+000	0,0000000E+000
0,0000000E+000	0,0000000E+000	0,0000000E+000	0,0000000E+000	0,0000000E+000	3,266600155184278E+000	6,9963592E-001	-1,0956642E+003	0,0000000E+000	0,0000000E+000	1,000000000000000E+000	7	0,0000000E+000	0,0000000E+000	0,0000000E+000	0,0000000E+000	0,0000000E+000	0,0000000E+000
0,0000000E+000	0,0000000E+000	0,0000000E+000	0,0000000E+000	0,0000000E+000	4,266600202681730E+000	6,9963783E-001	-1,0927964E+003	0,0000000E+000	0,0000000E+000	1,000000000000000E+000	7	0,0000000E+000	0,0000000E+000	0,0000000E+000	0,0000000E+000	0,0000000E+000	0,0000000E+000
0,0000000E+000	0,0000000E+000	0,0000000E+000	0,0000000E+000	0,0000000E+000	5,266600250179181E+000	6,9963938E-001	-1,0905424E+003	0,0000000E+000	0,0000000E+000	1,000000000000000E+000	7	0,0000000E+000	0,0000000E+000	0,0000000E+000	0,0000000E+000	0,0000000E+000	0,0000000E+000
0,0000000E+000	0,0000000E+000	0,0000000E+000	0,0000000E+000	0,0000000E+000	6,266600297676632E+000	6,9963598E-001	-1,0883990E+003	0,0000000E+000	0,0000000E+000	1,000000000000000E+000	7	0,0000000E+000	0,0000000E+000	0,0000000E+000	0,0000000E+000	0,0000000E+000	0,0000000E+000
0,0000000E+000	0,0000000E+000	0,0000000E+000	0,0000000E+000	0,0000000E+000	7,266600345174083E+000	6,9963986E-001	-1,0864176E+003	0,0000000E+000	0,0000000E+000	1,000000000000000E+000	7	0,0000000E+000	0,0000000E+000	0,0000000E+000	0,0000000E+000	0,0000000E+000	0,0000000E+000
0,0000000E+000	0,0000000E+000	0,0000000E+000	0,0000000E+000	0,0000000E+000	8,266600392671535E+000	6,9963592E-001	-1,0846610E+003	0,0000000E+000	0,0000000E+000	1,000000000000000E+000	7	0,0000000E+000	0,0000000E+000	0,0000000E+000	0,0000000E+000	0,0000000E+000	0,0000000E+000
0,0000000E+000	0,0000000E+000	0,0000000E+000	0,0000000E+000	0,0000000E+000	9,266600440168986E+000	6,9963777E-001	-1,0830233E+003	0,0000000E+000	0,0000000E+000	1,000000000000000E+000	7	0,0000000E+000	0,0000000E+000	0,0000000E+000	0,0000000E+000	0,0000000E+000	0,0000000E+000
0,0000000E+000	0,0000000E+000	0,0000000E+000	0,0000000E+000	0,0000000E+000	1,026660048766644E+001	6,9963741E-001	-1,0816544E+003	0,0000000E+000	0,0000000E+000	1,000000000000000E+000	7	0,0000000E+000	0,0000000E+000	0,0000000E+000	0,0000000E+000	0,0000000E+000	0,0000000E+000
0,0000000E+000	0,0000000E+000	0,0000000E+000	0,0000000E+000	0,0000000E+000	1,126660053516389E+001	6,9963449E-001	-1,0803610E+003	0,0000000E+000	0,0000000E+000	1,000000000000000E+000	7	0,0000000E+000	0,0000000E+000	0,0000000E+000	0,0000000E+000	0,0000000E+000	0,0000000E+000
0,0000000E+000	0,0000000E+000	0,0000000E+000	0,0000000E+000	0,0000000E+000	1,226660058266134E+001	6,9963634E-001	-1,0791115E+003	0,0000000E+000	0,0000000E+000	1,000000000000000E+000	7	0,0000000E+000	0,0000000E+000	0,0000000E+000	0,0000000E+000	0,0000000E+000	0,0000000E+000
0,0000000E+000	0,0000000E+000	0,0000000E+000	0,0000000E+000	0,0000000E+000	1,326660063015879E+001	6,9963735E-001	-1,0779744E+003	0,0000000E+000	0,0000000E+000	1,000000000000000E+000	7	0,0000000E+000	0,0000000E+000	0,0000000E+000	0,0000000E+000	0,0000000E+000	0,0000000E+000
0,0000000E+000	0,0000000E+000	0,0000000E+000	0,0000000E+000	0,0000000E+000	1,426660067765624E+001	6,9963688E-001	-1,0766687E+003	0,0000000E+000	0,0000000E+000	1,000000000000000E+000	7	0,0000000E+000	0,0000000E+000	0,0000000E+000	0,0000000E+000	0,0000000E+000	0,0000000E+000
0,0000000E+000	0,0000000E+000	0,0000000E+000	0,0000000E+000	0,0000000E+000	1,526660072515369E+001	6,9963866E-001	-1,0754103E+003	0,0000000E+000	0,0000000E+000	1,000000000000000E+000	7	0,0000000E+000	0,0000000E+000	0,0000000E+000	0,0000000E+000	0,0000000E+000	0,0000000E+000
0,0000000E+000	0,0000000E+000	0,0000000E+000	0,0000000E+000	0,0000000E+000	1,626660077265115E+001	6,9963634E-001	-1,0743777E+003	0,0000000E+000	0,0000000E+000	1,000000000000000E+000	7	0,0000000E+000	0,0000000E+000	0,0000000E+000	0,0000000E+000	0,0000000E+000	0,0000000E+000
0,0000000E+000	0,0000000E+000	0,0000000E+000	0,0000000E+000	0,0000000E+000	1,726660082014860E+001	6,9963425E-001	-1,0731108E+003	0,0000000E+000	0,0000000E+000	1,000000000000000E+000	7	0,0000000E+000	0,0000000E+000	0,0000000E+000	0,0000000E+000	0,0000000E+000	0,0000000E+000
0,0000000E+000	0,0000000E+000	0,0000000E+000	0,0000000E+000	0,0000000E+000	1,826660086764605E+001	6,9963372E-001	-1,0720875E+003	0,0000000E+000	0,0000000E+000	1,000000000000000E+000	7	0,0000000E+000	0,0000000E+000	0,0000000E+000	0,0000000E+000	0,0000000E+000	0,0000000E+000
0,0000000E+000	0,0000000E+000	0,0000000E+000	0,0000000E+000	0,0000000E+000	1,926660091514350E+001	6,9963664E-001	-1,0707360E+003	0,0000000E+000	0,0000000E+000	1,000000000000000E+000	7	0,0000000E+000	0,0000000E+000	0,0000000E+000	0,0000000E+000	0,0000000E+000	0,0000000E+000
0,0000000E+000	0,0000000E+000	0,0000000E+000	0,0000000E+000	0,0000000E+000	2,026660096264095E+001	6,9963259E-001	-1,0694373E+003	0,0000000E+000	0,0000000E+000	1,000000000000000E+000	7	0,0000000E+000	0,0000000E+000	0,0000000E+000	0,0000000E+000	0,0000000E+000	0,0000000E+000
0,0000000E+000	0,0000000E+000	0,0000000E+000	0,0000000E+000	0,0000000E+000	2,126660101013840E+001	6,9963455E-001	-1,0684877E+003	0,0000000E+000	0,0000000E+000	1,000000000000000E+000	7	0,0000000E+000	0,0000000E+000	0,0000000E+000	0,0000000E+000	0,0000000E+000	0,0000000E+000
0,0000000E+000	0,0000000E+000	0,0000000E+000	0,0000000E+000	0,0000000E+000	2,226660105763585E+001	6,9963437E-001	-1,0678943E+003	0,0000000E+000	0,0000000E+000	1,000000000000000E+000	7	0,0000000E+000	0,0000000E+000	0,0000000E+000	0,0000000E+000	0,0000000E+000	0,0000000E+000
0,0000000E+000	0,0000000E+000	0,0000000E+000	0,0000000E+000	0,0000000E+000	2,326660110513330E+001	6,9963849E-001	-1,0671735E+003	0,0000000E+000	0,0000000E+000	1,000000000000000E+000	7	0,0000000E+000	0,0000000E+000	0,0000000E+000	0,0000000E+000	0,0000000E+000	0,0000000E+000
0,0000000E+000	0,0000000E+000	0,0000000E+000	0,0000000E+000	0,0000000E+000	2,426660115263076E+001	6,9963670E-001	-1,0664175E+003	0,0000000E+000	0,0000000E+000	1,000000000000000E+000	7	0,0000000E+000	0,0000000E+000	0,0000000E+000	0,0000000E+000	0,0000000E+000	0,0000000E+000
0,0000000E+000	0,0000000E+000	0,0000000E+000	0,0000000E+000	0,0000000E+000	2,526660120012821E+001	6,9963598E-001	-1,0657523E+003	0,0000000E+000	0,0000000E+000	1,000000000000000E+000	7	0,0000000E+000	0,0000000E+000	0,0000000E+000	0,0000000E+000	0,0000000E+000	0,0000000E+000
0,0000000E+000	0,0000000E+000	0,0000000E+000	0,0000000E+000	0,0000000E+000	2,626660124762566E+001	6,9963533E-001	-1,0649830E+003	0,0000000E+000	0,0000000E+000	1,000000000000000E+000	7	0,0000000E+000	0,0000000E+000	0,0000000E+000	0,0000000E+000	0,0000000E+000	0,0000000E+000
0,0000000E+000	0,0000000E+000	0,0000000E+000	0,0000000E+000	0,0000000E+000	2,726660129512311E+001	6,9963777E-001	-1,0645521E+003	0,0000000E+000	0,0000000E+000	1,000000000000000E+000	7	0,0000000E+000	0,0000000E+000	0,0000000E+000	0,0000000E+000	0,0000000E+000	0,0000000E+000
0,0000000E+000	0,0000000E+000	0,0000000E+000	0,0000000E+000	0,0000000E+000	2,826660134262056E+001	6,9963497E-001	-1,0637081E+003	0,0000000E+000	0,0000000E+000	1,000000000000000E+000	7	0,0000000E+000	0,0000000E+000	0,0000000E+000	0,0000000E+000	0,0000000E+000	0,0000000E+000
0,0000000E+000	0,0000000E+000	0,0000000E+000	0,0000000E+000	0,0000000E+000	2,926660139011801E+001	6,9963646E-001	-1,0630123E+003	0,0000000E+000	0,0000000E+000	1,000000000000000E+000	7	0,0000000E+000	0,0000000E+000	0,0000000E+000	0,0000000E+000	0,0000000E+000	0,0000000E+000
2,0001948E+005	5,6483801E-003	1,2623603E-002	1,3829662E-002	-6,5894066E+001	3,050060144872987E+001	6,9885057E-001	-1,0665027E+003	6,3032490E+001	5,2517979E+001	1,000000000000000E+000	7	5,5861663E-005	4,0392643E-003	2,9532536E+001	6,6002464E+001	7,2308342E+001	6,5894066E+001
1,7122066E+005	1,2619925E-002	9,3041845E-003	1,5678978E-002	-3,6399921E+001	3,088960146720638E+001	6,9886518E-001	-1,0661158E+003	9,9904640E+001	3,5180889E+001	1,000000000000000E+000	7	8,7762462E-005	5,5974610E-003	5,1335915E+001	3,7847992E+001	6,3779671E+001	3,6399921E+001
1,4658200E+005	1,6530983E-002	6,1901668E-003	1,7651957E-002	-2,0528839E+001	3,188209260764415E+001	6,9887388E-001	-1,0658416E+003	1,7540305E+002	2,1570297E+001	1,000000000000000E+000	7	1,3667875E-004	7,7429800E-003	5,3053371E+001	1,9866285E+001	5,6650944E+001	2,0528839E+001
1,2548825E+005	1,9580049E-002	5,4394263E-003	2,0321557E-002	-1,5525534E+001	3,264708000398241E+001	6,9888246E-001	-1,0654916E+003	2,3316533E+002	1,6705374E+001	1,000000000000000E+000	7	2,1755807E-004	1,0705777E-002	4,7413261E+001	1,3171618E+001	4,9208828E+001	1,5525534E+001
1,0743162E+005	2,1557840E-002	5,3914879E-003	2,2221804E-002	-1,4041317E+001	3,341109342689742E+001	6,9888222E-001	-1,0654535E+003	2,7477640E+002	1,6174767E+001	1,000000000000000E+000	7	3,2633785E-004	1,4685480E-002	4,3656269E+001	1,0918175E+001	4,5000847E+001	1,4041317E+001
9,1972625E+004	2,2759864E-002	6,0365777E-003	2,3546798E-002	-1,4854490E+001	3,417709591661696E+001	6,9889188E-001	-1,0650449E+003	2,8666241E+002	1,8840334E+001	1,000000000000000E+000	7	4,7127809E-004	2,0014530E-002	4,1049320E+001	1,0887473E+001	4,2468620E+001	1,4854490E+001
7,8740219E+004	2,3584185E-002	6,3652010E-003	2,4428049E-002	-1,5103848E+001	3,494209920629510E+001	6,9890344E-001	-1,0648887E+003	3,1754950E+002	2,1560463E+001	1,000000000000000E+000	7	6,6145265E-004	2,7077587E-002	3,9522400E+001	1,0666810E+001	4,0936546E+001	1,5103848E+001
6,7412094E+004	2,4308003E-002	7,1401945E-003	2,5334984E-002	-1,6369541E+001	3,570709193599760E+001	6,9891202E-001	-1,0646589E+003	3,3065286E+002	2,6263409E+001	1,000000000000000E+000	7	9,1822125E-004	3,6243215E-002	3,7871109E+001	1,1124200E+001	3,9471111E+001	1,6369541E+001
5,7705063E+004	2,4928112E-002	7,9095988E-003	2,6152868E-002	-1,7604042E+001	3,647207853232976E+001	6,9891185E-001	-1,0645673E+003	3,4869986E+002	3,1894958E+001	1,000000000000000E+000	7	1,2622682E-003	4,8264999E-002	3,6446075E+001	1,1564205E+001	3,8236725E+001	1,7604042E+001
4,9404285E+004	2,5668265E-002	8,8982545E-003	2,7166869E-002	-1,9119574E+001	3,723709963532747E+001	6,9891942E-001	-1,0641443E+003	3,6203510E+002	3,8840172E+001	1,000000000000000E+000	7	1,7390307E-003	6,4012922E-002	3,4779018E+001	1,2056623E+001	3,6809540E+001	1,9119574E+001
4,2294906E+004	2,6349721E-002	9,9780718E-003	2,8175695E-002	-2,0740597E+001	3,800307684505242E+001	6,9892341E-001	-1,0639124E+003	3,7712512E+002	4,7296547E+001	1,000000000000000E+000	7	2,4007803E-003	8,5207492E-002	3,3191490E+001	1,2568902E+001	3,5491581E+001	2,0740597E+001
3,6210930E+004	2,7251584E-002	1,1086748E-002	2,9420484E-002	-2,2137941E+001	3,876907901477534E+001	6,9892967E-001	-1,0634338E+003	3,9643890E+002	5,6296967E+001	1,000000000000000E+000	7	3,3891792E-003	1,1519794E-001	3,1484163E+001	1,2808686E+001	3,3989925E+001	2,2137941E+001
3,0996082E+004	2,8213738E-002	1,2263071E-002	3,0763581E-002	-2,3492123E+001	3,940808979177382E+001	6,9892490E-001	-1,0635083E+003	4,1871075E+002	6,6533257E+001	1,000000000000000E+000	7	4,9318047E-003	1,6031308E-001	2,9811708E+001	1,2957626E+001	3,2505970E+001	2,3492123E+001
2,6533193E+004	2,9433986E-002	1,3474472E-002	3,2371607E-002	-2,4597652E+001	4,017409977482748E+001	6,9914180E-001	-1,0619458E+003	4,4516281E+002	7,7128319E+001	1,000000000000000E+000	7	5,2513080E-003	1,6221957E-001	2,8087982E+001	1,2858291E+001	3,0891268E+001	2,4597652E+001
2,2714838E+004	3,0732734E-002	1,4696239E-002	3,4065824E-002	-2,5556890E+001	4,093909991779947E+001	6,9930720E-001	-1,0605493E+003	4,7676492E+002	8,8731720E+001	1,000000000000000E+000	7	5,3025112E-003	1,5565486E-001	2,6482769E+001	1,2663926E+001	2,9354933E+001	2,5556890E+001
1,9453117E+004	3,2155748E-002	1,5925219E-002	3,5883211E-002	-2,6347034E+001	4,170308467411087E+001	6,9942135E-001	-1,0599476E+003	5,1374249E+002	1,0118911E+002	1,000000000000000E+000	7	5,2923770E-003	1,4748895E-001	2,4973307E+001	1,2368095E+001	2,7868187E+001	2,6347034E+001
1,6650385E+004	3,3693004E-002	1,7244333E-002	3,7849512E-002	-2,7103710E+001	4,246908649717807E+001	6,9948125E-001	-1,0592738E+003	5,5430585E+002	1,1505930E+002	1,000000000000000E+000	7	5,2381726E-003	1,3839471E-001	2,3519016E+001	1,2037210E+001	2,6420420E+001	2,7103710E+001
1,4257806E+004	3,5470031E-002	1,8660055E-002	4,0078931E-002	-2,7747936E+001	4,323508669354487E+001	6,9951779E-001	-1,0590742E+003	5,9821112E+002	1,2967256E+002	1,000000000000000E+000	7	5,1938239E-003	1,2958989E-001	2,2081537E+001	1,1616643E+001	2,4950766E+001	2,7747936E+001
1,2207026E+004	3,7469566E-002	2,0050935E-002	4,2497158E-002	-2,8152390E+001	4,400108478326001E+001	6,9954258E-001	-1,0589242E+003	6,5024292E+002	1,4475218E+002	1,000000000000000E+000	7	5,1696710E-003	1,2164745E-001	2,0747171E+001	1,1102348E+001	2,3530985E+001	2,8152390E+001
1,0449215E+004	3,9650727E-002	2,1459341E-002	4,5085292E-002	-2,8422661E+001	4,476508188623120E+001	6,9956458E-001	-1,0583075E+003	7,0977405E+002	1,6079890E+002	1,000000000000000E+000	7	5,1460620E-003	1,1414059E-001	1,9506592E+001	1,0557147E+001	2,2180182E+001	2,8422661E+001
8,9598486E+003	4,2120069E-002	2,2749210E-002	4,7870938E-002	-2,8373652E+001	4,559387365894509E+001	6,9958413E-001	-1,0581255E+003	7,8082397E+002	1,7633636E+002	1,000000000000000E+000	7	5,1343464E-003	1,0725393E-001	1,8379988E+001	9,9271011E+000	2,0889502E+001	2,8373652E+001
7,6553525E+003	4,4856153E-002	2,3978297E-002	5,0862886E-002	-2,8127169E+001	4,653032586336485E+001	6,9958913E-001	-1,0578263E+003	8,6703497E+002	1,9269536E+002	1,000000000000000E+000	7	5,1389774E-003	1,0103590E-001	1,7338840E+001	9,2686472E+000	1,9660702E+001	2,8127169E+001
6,5962202E+003	4,7631033E-002	2,5013877E-002	5,3799715E-002	-2,7706625E+001	4,759310282053775E+001	6,9959086E-001	-1,0572502E+003	9,6459271E+002	2,0851920E+002	1,000000000000000E+000	7	5,1326561E-003	9,5403038E-002	1,6456219E+001	8,6421356E+000	1,8587460E+001	2,7706625E+001
5,6203843E+003	5,0831042E-002	2,5895147E-002	5,7046942E-002	-2,6995916E+001	4,880877071831492E+001	6,9959861E-001	-1,0568517E+003	1,0935427E+003	2,2532417E+002	1,000000000000000E+000	7	5,1075737E-003	8,9532822E-002	1,5619397E+001	7,9570780E+000	1,7529423E+001	2,6995916E+001
4,8065371E+003	5,4110717E-002	2,6491437E-002	6,0247540E-002	-2,6085371E+001	5,013370518124430E+001	6,9960159E-001	-1,0561146E+003	1,2499203E+003	2,4166553E+002	1,000000000000000E+000	7	5,1375004E-003	8,5273199E-002	1,4907495E+001	7,2983871E+000	1,6598188E+001	2,6085371E+001
4,1110527E+003	5,7451647E-002	2,6920561E-002	6,3446105E-002	-2,5106741E+001	5,145795207077754E+001	6,9960803E-001	-1,0555450E+003	1,4380798E+003	2,5890549E+002	1,000000000000000E+000	7	5,1208087E-003	8,0711156E-002	1,4272253E+001	6,6876597E+000	1,5761409E+001	2,5106741E+001
3,5211257E+003	6,0741473E-002	2,7034165E-002	6,6485882E-002	-2,3992380E+001	5,278166178701940E+001	6,9961196E-001	-1,0550514E+003	1,6719591E+003	2,7643478E+002	1,000000000000000E+000	7	5,1286416E-003	7,7138811E-002	1,3741256E+001	6,1158118E+000	1,5040787E+001	2,3992380E+001
3,0159644E+003	6,3976176E-002	2,6871512E-002	6,9390409E-002	-2,2783564E+001	5,410567152990552E+001	6,9961488E-001	-1,0543048E+003	1,9638208E+003	2,9450125E+002	1,000000000000000E+000	7	5,0671902E-003	7,3024362E-002	1,3286769E+001	5,5807586E+000	1,4411214E+001	2,2783564E+001
2,5808257E+003	6,7190059E-002	2,6430357E-002	7,2201580E-002	-2,1473042E+001	5,543066673950671E+001	6,9961184E-001	-1,0537356E+003	2,3332349E+003	3,1265912E+002	1,000000000000000E+000	7	5,1013771E-003	7,0654646E-002	1,2888775E+001	5,0700197E+000	1,3850113E+001	2,1473042E+001
2,2107073E+003	7,0136368E-002	2,5943505E-002	7,4780852E-002	-2,0299479E+001	5,675467624239536E+001	6,9961661E-001	-1,0530784E+003	2,7749824E+003	3,3399252E+002	1,000000000000000E+000	7	5,0841854E-003	6,7987800E-002	1,2541875E+001	4,6392508E+000	1,3372407E+001	2,0299479E+001
1,8906046E+003	7,2921470E-002	2,5281724E-002	7,7179700E-002	-1,9121326E+001	5,807866211861256E+001	6,9961357E-001	-1,0525253E+003	3,3297585E+003	3,5728922E+002	1,000000000000000E+000	7	5,0511202E-003	6,5446228E-002	1,2241911E+001	4,2442455E+000	1,2956775E+001	1,9121326E+001
1,6184463E+003	7,5549707E-002	2,4524868E-002	7,9430647E-002	-1,7984413E+001	5,940295730149955E+001	6,9961619E-001	-1,0518680E+003	4,0097302E+003	3,8225424E+002	1,000000000000000E+000	7	5,1218593E-003	6,4482152E-002	1,1974478E+001	3,8871424E+000	1,2589599E+001	1,7984413E+001
1,3854434E+003	7,7828266E-002	2,3930369E-002	8,1424206E-002	-1,7091436E+001	6,072669307105389E+001	6,9961798E-001	-1,0510503E+003	4,8004502E+003	4,1464240E+002	1,000000000000000E+000	7	5,0551239E-003	6,2083799E-002	1,1738977E+001	3,6094606E+000	1,2281360E+001	1,7091436E+001
1,1868990E+003	7,9867646E-002	2,3319514E-002	8,3202407E-002	-1,6276590E+001	6,183142101680278E+001	6,9961601E-001	-1,0503608E+003	5,7502515E+003	4,5170413E+002	1,000000000000000E+000	7	5,3978804E-003	6,4876497E-002	1,1537165E+001	3,3685868E+000	1,2018883E+001	1,6276590E+001
1,0166263E+003	8,1993409E-002	2,2820955E-002	8,5110016E-002	-1,5553306E+001	6,315441953300615E+001	6,9961554E-001	-1,0496156E+003	6,8600132E+003	4,9320926E+002	1,000000000000000E+000	7	5,0044004E-003	5,8799196E-002	1,1319248E+001	3,1504493E+000	1,1749498E+001	1,5553306E+001
8,7027832E+002	8,3850555E-002	2,2539640E-002	8,6827129E-002	-1,5045862E+001	6,426170054561953E+001	6,9961607E-001	-1,0490570E+003	8,1136260E+003	5,4676166E+002	1,000000000000000E+000	7	5,2052187E-003	5,9949219E-002	1,1122311E+001	2,9897583E+000	1,1517138E+001	1,5045862E+001
7,4428503E+002	8,5574985E-002	2,2330631E-002	8,8440575E-002	-1,4625088E+001	6,536894281153218E+001	6,9962031E-001	-1,0484362E+003	9,5759053E+003	6,1049023E+002	1,000000000000000E+000	7	5,3557474E-003	6,0557585E-002	1,0940665E+001	2,8549461E+000	1,1307028E+001	1,4625088E+001
6,3775500E+002	8,7352544E-002	2,2418329E-002	9,0183415E-002	-1,4393852E+001	6,648045793097117E+001	6,9961739E-001	-1,0479335E+003	1,1131739E+004	6,8788550E+002	1,000000000000000E+000	7	5,4652891E-003	6,0601931E-002	1,0740443E+001	2,7564487E+000	1,1088513E+001	1,4393852E+001
5,4587329E+002	8,8971525E-002	2,2655740E-002	9,1810755E-002	-1,4286202E+001	6,780241143374587E+001	6,9962358E-001	-1,0471376E+003	1,2869154E+004	7,8364514E+002	1,000000000000000E+000	7	5,0360966E-003	5,4853011E-002	1,0555138E+001	2,6877639E+000	1,0891970E+001	1,4286202E+001
4,6694232E+002	9,0853445E-002	2,3039509E-002	9,3729228E-002	-1,4229662E+001	6,890491924615344E+001	6,9961125E-001	-1,0467976E+003	1,4793934E+004	8,9388165E+002	1,000000000000000E+000	7	5,0903130E-003	5,4308705E-002	1,0341685E+001	2,6225462E+000	1,0669030E+001	1,4229662E+001
4,0012793E+002	9,2746228E-002	2,3661040E-002	9,5716812E-002	-1,4311788E+001	7,001170772539626E+001	6,9961441E-001	-1,0462301E+003	1,6810764E+004	1,0272559E+003	1,000000000000000E+000	7	5,1226616E-003	5,3518932E-002	1,0123247E+001	2,5826015E+000	1,0447486E+001	1,4311788E+001
3,4230014E+002	9,4747394E-002	2,4569700E-002	9,7881250E-002	-1,4537605E+001	7,111238017762662E+001	6,9961363E-001	-1,0459967E+003	1,8924012E+004	1,1923779E+003	1,000000000000000E+000	7	5,1459838E-003	5,2573744E-002	9,8893614E+000	2,5644889E+000	1,0216461E+001	1,4537605E+001
2,9321713E+002	9,6868180E-002	2,5519853E-002	1,0017338E-001	-1,4759176E+001	7,222496679049800E+001	6,9961613E-001	-1,0455076E+003	2,1269271E+004	1,3803979E+003	1,000000000000000E+000	7	5,1541054E-003	5,1451843E-002	9,6533146E+000	2,5431588E+000	9,9826918E+000	1,4759176E+001
2,5104428E+002	9,9155523E-002	2,6572553E-002	1,0265436E-001	-1,5002110E+001	7,332692198950099E+001	6,9962198E-001	-1,0450840E+003	2,3858135E+004	1,5986311E+003	1,000000000000000E+000	7	5,1551214E-003	5,0218243E-002	9,4094038E+000	2,5216134E+000	9,7414274E+000	1,5002110E+001
2,1479373E+002	1,0176358E-001	2,7774038E-002	1,0548565E-001	-1,5265775E+001	7,443391676209285E+001	6,9961905E-001	-1,0445974E+003	2,6678383E+004	1,8494849E+003	1,000000000000000E+000	7	5,1555438E-003	4,8874363E-002	9,1454611E+000	2,4960442E+000	9,4799623E+000	1,5265775E+001
1,8388197E+002	1,0469851E-001	2,9131250E-002	1,0867570E-001	-1,5548663E+001	7,554696932161460E+001	6,9962531E-001	-1,0440371E+003	2,9711314E+004	2,1348887E+003	1,000000000000000E+000	7	5,1531019E-003	4,7417242E-002	8,8649368E+000	2,4665747E+000	9,2016897E+000	1,5548663E+001
1,5746906E+002	1,0784630E-001	3,0264817E-002	1,1201243E-001	-1,5675669E+001	7,663660870673903E+001	6,9962078E-001	-1,0438400E+003	3,3395418E+004	2,4379822E+003	1,000000000000000E+000	7	5,1465835E-003	4,5946538E-002	8,5955334E+000	2,4121573E+000	8,9275808E+000	1,5675669E+001
1,3487047E+002	1,1123277E-001	3,1352747E-002	1,1556697E-001	-1,5741344E+001	7,774492886601365E+001	6,9962168E-001	-1,0435872E+003	3,7638098E+004	2,7702019E+003	1,000000000000000E+000	7	5,1391935E-003	4,4469398E-002	8,3284712E+000	2,3475137E+000	8,6529913E+000	1,5741344E+001
1,1548034E+002	1,1509074E-001	3,2290280E-002	1,1953469E-001	-1,5672190E+001	7,884793953175540E+001	6,9961482E-001	-1,0433727E+003	4,2681559E+004	3,1145549E+003	1,000000000000000E+000	7	5,1393621E-003	4,2994734E-002	8,0547581E+000	2,2598724E+000	8,3657722E+000	1,5672190E+001
9,8767387E+001	1,1909302E-001	3,3034720E-002	1,2358981E-001	-1,5503263E+001	7,996525801144890E+001	6,9961870E-001	-1,0428369E+003	4,8779340E+004	3,4850730E+003	1,000000000000000E+000	7	5,1307213E-003	4,1514114E-002	7,7968826E+000	2,1627450E+000	8,0912819E+000	1,5503263E+001
8,4593933E+001	1,2321278E-001	3,3377219E-002	1,2765355E-001	-1,5157139E+001	8,107772651767300E+001	6,9962043E-001	-1,0425983E+003	5,6367758E+004	3,8535876E+003	1,000000000000000E+000	7	5,1226923E-003	4,0129650E-002	7,5611863E+000	2,0482564E+000	7,8337026E+000	1,5157139E+001
7,2433746E+001	1,2745818E-001	3,3389069E-002	1,3175894E-001	-1,4679407E+001	8,214900448854314E+001	6,9961816E-001	-1,0425564E+003	6,5807422E+004	4,2259395E+003	1,000000000000000E+000	7	5,1195263E-003	3,8855247E-002	7,3418841E+000	1,9232872E+000	7,5896177E+000	1,4679407E+001
6,2003960E+001	1,3182567E-001	3,3212788E-002	1,3594520E-001	-1,4141068E+001	8,322425845960970E+001	6,9961745E-001	-1,0425547E+003	7,7285031E+004	4,6129453E+003	1,000000000000000E+000	7	5,1195873E-003	3,7659198E-002	7,1330004E+000	1,7971220E+000	7,3559051E+000	1,4141068E+001
5,3047832E+001	1,3589703E-001	3,2388318E-002	1,3970327E-001	-1,3405218E+001	8,436810888725449E+001	6,9961894E-001	-1,0427864E+003	9,2632656E+004	4,9788350E+003	1,000000000000000E+000	7	5,1125139E-003	3,6595520E-002	6,9630065E+000	1,6594923E+000	7,1580286E+000	1,3405218E+001
4,5421505E+001	1,3979541E-001	3,1421091E-002	1,4328308E-001	-1,2667558E+001	8,546487677935511E+001	6,9961840E-001	-1,0432874E+003	1,1151605E+005	5,3627808E+003	1,000000000000000E+000	7	5,1071434E-003	3,5643730E-002	6,8093095E+000	1,5304933E+000	6,9791908E+000	1,2667558E+001
3,8868153E+001	1,4352594E-001	3,0052975E-002	1,4663860E-001	-1,1826330E+001	8,660259136665263E+001	6,9961643E-001	-1,0437540E+003	1,3625072E+005	5,7229121E+003	1,000000000000000E+000	7	5,1067229E-003	3,4825228E-002	6,6747313E+000	1,3976256E+000	6,8194866E+000	1,1826330E+001
3,3264893E+001	1,4699042E-001	2,8546214E-002	1,4973667E-001	-1,0990297E+001	8,776116835509310E+001	6,9961768E-001	-1,0443464E+003	1,6760442E+005	6,0915269E+003	1,000000000000000E+000	7	5,1024398E-003	3,4076087E-002	6,5559053E+000	1,2731868E+000	6,6783905E+000	1,0990297E+001
2,8512768E+001	1,5010045E-001	2,6807111E-002	1,5247546E-001	-1,0125951E+001	8,891918390340288E+001	6,9961834E-001	-1,0450082E+003	2,0822398E+005	6,4362197E+003	1,000000000000000E+000	7	5,1026363E-003	3,3465296E-002	6,4562759E+000	1,1530552E+000	6,5584326E+000	1,0125951E+001
2,4414059E+001	1,5301730E-001	2,5070723E-002	1,5505752E-001	-9,3048058E+000	9,004954574376461E+001	6,9961637E-001	-1,0458262E+003	2,6002391E+005	6,7976899E+003	1,000000000000000E+000	7	5,1033273E-003	3,2912478E-002	6,3643618E+000	1,0427524E+000	6,4492197E+000	9,3048058E+000
2,0889036E+001	1,5534875E-001	2,3033915E-002	1,5704711E-001	-8,4339294E+000	9,111422334102099E+001	6,9961703E-001	-1,0466252E+003	3,3077600E+005	7,1155688E+003	1,000000000000000E+000	7	5,1015457E-003	3,2484174E-002	6,2986555E+000	9,3391615E-001	6,3675160E+000	8,4339294E+000
1,7877571E+001	1,5758966E-001	2,1327045E-002	1,5902624E-001	-7,7071719E+000	9,233951107921894E+001	6,9961780E-001	-1,0476230E+003	4,1742738E+005	7,5076626E+003	1,000000000000000E+000	7	5,1003853E-003	3,2072604E-002	6,2314649E+000	8,4332138E-001	6,2882705E+000	7,7071719E+000
1,5318626E+001	1,5938285E-001	1,9385194E-002	1,6055740E-001	-6,9346299E+000	9,342556971745216E+001	6,9961447E-001	-1,0484103E+003	5,3595725E+005	7,8128555E+003	1,000000000000000E+000	7	5,1006298E-003	3,1768262E-002	6,1827393E+000	7,5198555E-001	6,2283020E+000	6,9346299E+000
1,3108220E+001	1,6101679E-001	1,7546328E-002	1,6197000E-001	-6,2190981E+000	9,467662164359172E+001	6,9961494E-001	-1,0491929E+003	6,9197463E+005	8,1207002E+003	1,000000000000000E+000	7	5,0987583E-003	3,1479646E-002	6,1376481E+000	6,6883200E-001	6,1739826E+000	6,2190981E+000
1,1224855E+001	1,6235763E-001	1,5715010E-002	1,6311641E-001	-5,5285826E+000	9,567490475764498E+001	6,9961810E-001	-1,0500320E+003	9,0224544E+005	8,3744971E+003	1,000000000000000E+000	7	5,0984207E-003	3,1256333E-002	6,1020732E+000	5,9063524E-001	6,1305909E+000	5,5285826E+000
9,5976629E+000	1,6345391E-001	1,3958857E-002	1,6404887E-001	-4,8811789E+000	9,682414473223616E+001	6,9961971E-001	-1,0509041E+003	1,1879681E+006	8,6011807E+003	1,000000000000000E+000	7	5,0971122E-003	3,1070694E-002	6,0736370E+000	5,1868463E-001	6,0957446E+000	4,8811789E+000
8,2236805E+000	1,6428572E-001	1,2309819E-002	1,6474625E-001	-4,2851267E+000	9,814800204845960E+001	6,9961917E-001	-1,0517557E+003	1,5721800E+006	8,7775732E+003	1,000000000000000E+000	7	5,0966241E-003	3,0936208E-002	6,0529723E+000	4,5354515E-001	6,0699406E+000	4,2851267E+000
7,0382910E+000	1,6513573E-001	1,0906794E-002	1,6549551E-001	-3,7787523E+000	9,896678307402181E+001	6,9961417E-001	-1,0524684E+003	2,0732699E+006	9,0048730E+003	1,000000000000000E+000	7	5,1001166E-003	3,0817250E-002	6,0293236E+000	3,9822149E-001	6,0424600E+000	3,7787523E+000
6,0281625E+000	1,6564709E-001	9,6700415E-003	1,6592911E-001	-3,3409848E+000	9,990561826529029E+001	6,9961166E-001	-1,0530653E+003	2,7302780E+006	9,2729600E+003	1,000000000000000E+000	7	5,0955880E-003	3,0709427E-002	6,0164270E+000	3,5122314E-001	6,0266700E+000	3,3409848E+000
5,1601710E+000	1,6613550E-001	8,2495585E-003	1,6634020E-001	-2,8427215E+000	1,009845393298019E+002	6,9961321E-001	-1,0536012E+003	3,7387408E+006	9,1958594E+003	1,000000000000000E+000	7	5,0974484E-003	3,0644717E-002	6,0043783E+000	2,9815099E-001	6,0117760E+000	2,8427215E+000
4,4188342E+000	1,6657881E-001	7,4380739E-003	1,6674480E-001	-2,5566716E+000	1,022250956553908E+002	6,9961458E-001	-1,0543617E+003	4,8423025E+006	9,6353682E+003	1,000000000000000E+000	7	5,0979536E-003	3,0573389E-002	5,9912190E+000	2,6751977E-001	5,9971886E+000	2,5566716E+000
3,7851255E+000	1,6686866E-001	5,9530353E-003	1,6697481E-001	-2,0431590E+000	1,036539930566505E+002	6,9961792E-001	-1,0553335E+003	7,0631985E+006	8,9779336E+003	1,000000000000000E+000	7	5,0986232E-003	3,0535283E-002	5,9851198E+000	2,1351901E-001	5,9889274E+000	2,0431590E+000
3,2390125E+000	1,6698669E-001	5,4557729E-003	1,6707578E-001	-1,8712966E+000	1,053085356685042E+002	6,9961399E-001	-1,0560076E+003	9,0064000E+006	9,6036602E+003	1,000000000000000E+000	7	5,0995504E-003	3,0522378E-002	5,9821157E+000	1,9544712E-001	5,9853077E+000	1,8712966E+000
2,7703893E+000	1,6652170E-001	4,7110850E-003	1,6658832E-001	-1,6205294E+000	1,072278267197253E+002	6,9961482E-001	-1,0574755E+003	1,2194342E+007	9,7523916E+003	1,000000000000000E+000	7	5,0976099E-003	3,0600043E-002	6,0004210E+000	1,6975862E-001	6,0028219E+000	1,6205294E+000
2,3760641E+000	1,6679920E-001	3,9691874E-003	1,6684642E-001	-1,3631647E+000	1,094527617054118E+002	6,9961888E-001	-1,0579794E+003	1,6875646E+007	9,5505811E+003	1,000000000000000E+000	7	5,0981473E-003	3,0555928E-002	5,9918394E+000	1,4258301E-001	5,9935355E+000	1,3631647E+000
2,0302749E+000	1,6720319E-001	3,5171721E-003	1,6724017E-001	-1,2050573E+000	1,120395179882471E+002	6,9961613E-001	-1,0586920E+003	2,2288030E+007	9,8577480E+003	1,000000000000000E+000	7	5,0980896E-003	3,0483643E-002	5,9781022E+000	1,2575129E-001	5,9794245E+000	1,2050573E+000
1,7399776E+000	1,6664168E-001	3,1199506E-003	1,6667089E-001	-1,0725955E+000	1,150446540776866E+002	6,9962043E-001	-1,0590924E+003	2,9317622E+007	1,0273175E+004	1,000000000000000E+000	7	5,0986949E-003	3,0591395E-002	5,9987965E+000	1,1231253E-001	5,9998479E+000	1,0725955E+000
1,4897974E+000	1,6701543E-001	2,7358662E-003	1,6703784E-001	-9,3847352E-001	1,185432743504934E+002	6,9962293E-001	-1,0588662E+003	3,9047936E+007	1,0475097E+004	1,000000000000000E+000	7	5,0974721E-003	3,0516868E-002	5,9858642E+000	9,8053947E-002	5,9866672E+000	9,3847352E-001
1,2740542E+000	1,6722961E-001	2,9509345E-003	1,6725564E-001	-1,0109367E+000	1,226190048907592E+002	6,9961745E-001	-1,0577413E+003	4,2332380E+007	1,3177416E+004	1,000000000000000E+000	7	5,0976891E-003	3,0478429E-002	5,9779410E+000	1,0548679E-001	5,9788718E+000	1,0109367E+000
1,0923519E+000	1,6669156E-001	2,4495022E-003	1,6670956E-001	-8,4189051E-001	1,273627078627615E+002	6,9961709E-001	-1,0555533E+003	5,9481200E+007	1,2841460E+004	1,000000000000000E+000	7	5,0981320E-003	3,0580923E-002	5,9978089E+000	8,8136718E-002	5,9984565E+000	8,4189051E-001
9,3450952E-001	1,6746263E-001	1,4805082E-003	1,6746917E-001	-5,0652891E-001	1,328944590587926E+002	6,9961751E-001	-1,0533126E+003	1,1503382E+008	8,9903682E+003	1,000000000000000E+000	7	5,0980910E-003	3,0441966E-002	5,9710150E+000	5,2788712E-002	5,9712481E+000	5,0652891E-001
7,9980534E-001	1,6868269E-001	5,3758302E-004	1,6868354E-001	-1,8259808E-001	1,393457438719197E+002	6,9961667E-001	-1,0501296E+003	3,7016067E+008	3,7595505E+003	1,000000000000000E+000	7	5,0989762E-003	3,0228060E-002	5,9282303E+000	1,8892964E-002	5,9282603E+000	1,8259808E-001